INDEX VERSION 1.131+C:\Users\ramannpr\support_works\nikitha-core java\.metadata\.plugins\org.eclipse.jdt.core
374393369.index
45900687.index
748426197.index
2329653034.index
1528274992.index
4088453328.index
3196848607.index
3796863028.index
731968244.index
1629502803.index
3804311065.index
1752862138.index
1913755281.index
924963215.index
3718708489.index
4237426067.index
1281337094.index
1431376808.index
3237629291.index
3880231276.index
709509821.index
1707860295.index
3435571465.index
1458409927.index
4072707551.index
1856369856.index
4161596028.index
3549324868.index
4034046130.index
4140093956.index
1039947775.index
3395646240.index
792266629.index
3357354403.index
689552030.index
3915658389.index
3447939360.index
3723013793.index
2665307374.index
813966927.index
2513380141.index
3042054895.index
3916596998.index
486212650.index
2993760229.index
3407568374.index
446869445.index
4010656398.index
2080692850.index
2988535940.index
1892195776.index
2973168838.index
1314380015.index
2719251296.index
4063562878.index
3116846752.index
575839070.index
2870172010.index
3113459258.index
924709048.index
3579271641.index
4236023713.index
1884408730.index
525992472.index
1068494516.index
4208017447.index
197889387.index
27145952.index
2088757168.index
3742690662.index
778568628.index
1760445989.index
594058326.index
4020449950.index
1843123581.index
3008087201.index
4024353879.index
2915718050.index
1887114750.index
1020184470.index
465150192.index
450080236.index
1650732884.index
2000196810.index
3454296904.index
689502246.index
1841161210.index
3695637975.index
1315345580.index
2809423333.index
2832459767.index
1382559088.index
2950603888.index
3950917447.index
1353222841.index
3753373738.index
3572692575.index
3893736426.index
1627160659.index
3484441794.index
2203265050.index
1956158391.index
2720751595.index
2496598540.index
476915539.index
3051029534.index
1918927979.index
2168459144.index
962547040.index
3885883768.index
1710102452.index
2841650353.index
1037870548.index
3765319093.index
2070211934.index
3592575225.index
2826165369.index
225032474.index
1014610904.index
1124822095.index
4293422891.index
2231687035.index
2150934198.index
4113181042.index
972511311.index
4010566227.index
2178951193.index
1756086121.index
4127193397.index
1582025922.index
3616091468.index
656741405.index
4085636665.index
2935082616.index
3967280502.index
2138448766.index
676535794.index
870993433.index
638861864.index
1532142191.index
1456010245.index
3211773916.index
2986274923.index
1253441553.index
2970272929.index
3017227148.index
1190930684.index
1815141575.index
3115721334.index
657863722.index
1423314316.index
4017948497.index
3324278907.index
3537511735.index
262584783.index
75893376.index
2317678040.index
237391752.index
2099293024.index
3956362591.index
1508738211.index
890392424.index
785988714.index
3192053530.index
1709371982.index
3753146388.index
143778750.index
2513897111.index
1084772038.index
1098164584.index
1618400528.index
3207157651.index
2633729249.index
2903143051.index
4052862817.index
3511723715.index
2394550699.index
3142859894.index
2366187434.index
4133597683.index
1068415008.index
385337418.index
1063920911.index
4141541229.index
1996277969.index
3751154532.index
3163738933.index
3459187143.index
2753425689.index
2642397326.index
4174907092.index
3317716024.index
2113970431.index
4212076456.index
3694573577.index
2656611789.index
3503238276.index
258828259.index
3650350887.index
2394065544.index
3585466628.index
786902668.index
1657313049.index
3373914127.index
2650667668.index
2797525600.index
1793950835.index
3902746089.index
1214367305.index
2914705692.index
2444771964.index
3244034644.index
1589036238.index
4057192102.index
1333283618.index
1998944798.index
1428256770.index
1575816604.index
3201819475.index
1291324173.index
1879276555.index
1434590085.index
2398531443.index
1771948674.index
692542439.index
3812784801.index
3105904648.index
759267295.index
1989775971.index
3722966287.index
372174511.index
3478524884.index
2564154321.index
2747938833.index
2127084088.index
751887502.index
3840085498.index
655375146.index
309072976.index
2204403105.index
935646239.index
1512354266.index
3934181729.index
2568692430.index
4260409212.index
2100239904.index
3709201543.index
1893052558.index
2229980189.index
1159230734.index
4253793601.index
2915072775.index
