INDEX VERSION 1.131+C:\Users\ramannpr\support_works\nikitha-core java\.metadata\.plugins\org.eclipse.jdt.core
2665307374.index
486212650.index
2394550699.index
3192053530.index
1956158391.index
2203265050.index
262584783.index
3812784801.index
3521849231.index
1843123581.index
3447939360.index
2903143051.index
4072707551.index
4140093956.index
3196848607.index
3317716024.index
1281337094.index
1285544063.index
1532142191.index
3163738933.index
4260409212.index
1434590085.index
2986274923.index
3237629291.index
792266629.index
972511311.index
2988535940.index
748426197.index
4293422891.index
3113459258.index
1856369856.index
3585466628.index
4141541229.index
2317678040.index
1771948674.index
3244034644.index
3572692575.index
1124822095.index
3650350887.index
1020184470.index
1650732884.index
525992472.index
3051029534.index
1998944798.index
1815141575.index
1841161210.index
1037870548.index
1892195776.index
2832459767.index
309072976.index
4052862817.index
3017227148.index
3722966287.index
1582025922.index
1512354266.index
1508738211.index
3893736426.index
4253793601.index
225032474.index
4010566227.index
4017948497.index
1458409927.index
3435571465.index
3478524884.index
1528274992.index
655375146.index
3694573577.index
4174907092.index
237391752.index
3795247591.index
211402758.index
197889387.index
4133597683.index
1333283618.index
1423314316.index
2496598540.index
2099293024.index
3115721334.index
1315345580.index
465150192.index
2915072775.index
4088453328.index
3511723715.index
3395646240.index
2973168838.index
4020449950.index
3804311065.index
2935082616.index
2150934198.index
2329653034.index
2070211934.index
1629502803.index
3902746089.index
1382559088.index
1989775971.index
935646239.index
3116846752.index
4113181042.index
3616091468.index
1657313049.index
2633729249.index
1884408730.index
2100239904.index
689502246.index
1972697557.index
3042054895.index
4208017447.index
638861864.index
3916596998.index
1709371982.index
2950603888.index
4010656398.index
1707860295.index
2970272929.index
3742690662.index
4024353879.index
4161596028.index
2915718050.index
4057192102.index
1084772038.index
4237426067.index
813966927.index
3718708489.index
3407568374.index
3723013793.index
2656611789.index
2398531443.index
2394065544.index
143778750.index
1353222841.index
2642397326.index
1918927979.index
1428256770.index
1618400528.index
2809423333.index
1253441553.index
962547040.index
3459187143.index
450080236.index
2753425689.index
3751154532.index
2719251296.index
3151052348.index
2113970431.index
1098164584.index
3956362591.index
2568692430.index
476915539.index
3950917447.index
3201819475.index
3211773916.index
2870172010.index
2564154321.index
4063562878.index
1760445989.index
3765319093.index
2229980189.index
